[Header]
Data File Name	C:\GCsolution\Data\FAME\2023\11.07.23\0611-1.gcd
Output Date	11/15/2023
Output Time	2:18:02 PM

[File Information]
Type	Data File
Generated	11/7/2023 11:23:19 AM
Generated by	Admin
Modified	11/7/2023 12:23:16 PM
Modified by	Admin

[Sample Information]
Operator Name	Admin
Acquisition Date	11/7/2023 11:28:10 AM
Type	Unknown
Level	1
Sample Name	0611/1
Sample ID	
ISTD Amount1	1
ISTD Amount2	1
ISTD Amount3	1
ISTD Amount4	1
ISTD Amount5	1
ISTD Amount6	1
ISTD Amount7	1
ISTD Amount8	1
ISTD Amount9	1
ISTD Amount10	1
ISTD Amount11	1
ISTD Amount12	1
ISTD Amount13	1
ISTD Amount14	1
ISTD Amount15	1
ISTD Amount16	1
Sample Amount	1
Dilution Factor	1
Vial#	1
Injection Volume	1
Injection Count	1
Bar Code	

[Original Files]
Data File	C:\GCsolution\Data\FAME\2023\11.07.23\0611-1.gcd
Method File	C:\GCsolution\Methods\FAME\FAME 37 mix 07.2023.gcm
Batch File	C:\GCsolution\Data\FAME\2023\11.07.23\1.gcb
Report Format File	C:\GCsolution\Data\FAME\Report.gcr

[File Comment]


[Configration]
Instrument Name	GC-2014AFsc
Instrument #	1
Line #	1

[Peak Table (Ch1)]
# of Peaks	47
Peak#	R.Time	I.Time	F.Time	Area	Height	A/H	Conc.	Mark	ID#	Name	k'	Plate #	Plate Ht.	Tailing	Resolution	Sep.Factor
1	12.206	12.143	12.474	312627	112592	0.03	0.00000	   	1	C4:0 Butyric	0.000	467507.302	0.000	1.170	0.000	0.000
2	14.118	14.033	14.388	177877	55117	0.03	0.00000	   	2	C6:0 Caproic	0.157	472671.643	0.000	1.174	24.975	0.000
3	16.722	16.632	16.940	98969	29299	0.03	0.00000	   	3	C8:0 Caprylic	0.370	604651.563	0.000	1.168	31.055	2.362
4	19.538	19.456	19.708	209856	67039	0.03	0.00000	   	4	C10:0 Capric	0.601	932064.151	0.000	1.096	33.819	1.623
5	20.483	20.403	20.576	24439	7441	0.03	0.00000	   	5	C10:1	0.678	916227.680	0.000	1.125	11.377	1.129
6	22.386	22.293	22.568	258763	80712	0.03	0.00000	   	7	C12:0 Lauric	0.834	1161786.337	0.000	1.042	22.623	1.230
7	23.464	23.362	23.590	10911	1938	0.06	0.00000	   	8	C13:0 Tridecylic	0.922	379798.782	0.000	1.141	9.192	1.106
8	24.620	24.538	24.738	26092	7711	0.03	0.00000	   			1.017	1217581.454	0.000	1.064	9.595	1.103
9	25.429	25.298	25.700	1169950	307877	0.04	0.00000	   	9	C14:0 Myristic	1.083	1069839.914	0.000	0.843	8.649	1.065
10	26.198	26.115	26.302	58863	16618	0.04	0.00000	   			1.146	1258501.882	0.000	1.043	8.042	1.058
11	26.443	26.302	26.498	95422	27286	0.03	0.00000	 V 	10	C14:1n6	1.166	1326028.801	0.000	0.000	2.654	1.018
12	26.548	26.498	26.698	103665	28675	0.04	0.00000	 V 			1.175	1263075.329	0.000	0.000	1.127	1.007
13	27.028	26.927	27.198	186845	52732	0.04	0.00000	   	11	C15:0 Pentadecylic	1.214	1375118.873	0.000	1.013	5.155	1.033
14	27.877	27.781	27.991	48357	11315	0.04	0.00000	   	12	C15:1	1.284	1029006.430	0.000	1.157	8.423	1.057
15	28.874	28.640	30.432	3266377	546018	0.06	0.00000	S  	13	C16:0 Palmitic	1.366	538448.129	0.000	0.673	7.478	1.064
16	29.407	29.321	29.484	30077	7546	0.04	0.00000	TV 			1.409	1421737.959	0.000	0.000	4.178	1.032
17	29.668	29.484	29.736	104780	17849	0.06	0.00000	TV 			1.431	731121.115	0.000	0.000	2.199	1.015
18	29.801	29.736	29.965	134323	35351	0.04	0.00000	TV 	14	C16:1n7 Palmitoleic	1.442	1465971.670	0.000	0.000	1.130	1.008
19	30.089	29.970	30.156	75088	17174	0.04	0.00000	T  			1.465	1161413.123	0.000	0.000	2.749	1.016
20	30.183	30.156	30.217	14775	4312	0.03	0.00000	TV 			1.473	0.000	0.000	0.000	0.000	1.005
21	30.262	30.217	30.413	27358	4122	0.07	0.00000	TV 			1.479	0.000	0.000	0.000	0.000	1.004
22	30.627	30.530	30.791	108242	23416	0.05	0.00000	   	15	C17:0 Margaric	1.509	1058521.173	0.000	1.167	0.000	1.020
23	31.642	31.416	31.790	61299	10669	0.06	0.00000	   	16	C17:1	1.592	1025379.465	0.000	0.742	8.342	1.055
24	32.732	32.443	32.942	1755707	240755	0.07	0.00000	   	17	C18:0 Stearic	1.682	426283.334	0.000	0.659	6.714	1.056
25	33.435	33.064	33.540	677732	78257	0.09	0.00000	   	18	C18:1 trans 9 Elaidic	1.739	381280.736	0.000	0.000	3.381	1.034
26	33.780	33.540	33.848	3596369	481865	0.07	0.00000	 V 	19	C18:1 cis 9 Oleic	1.768	469125.796	0.000	0.630	1.669	1.016
27	33.871	33.848	33.936	74844	22932	0.03	0.00000	 V 			1.775	0.000	0.000	0.000	0.000	1.004
28	33.972	33.936	34.034	24732	5896	0.04	0.00000	 V 			1.783	0.000	0.000	0.000	0.000	1.005
29	34.103	34.034	34.207	71406	15310	0.05	0.00000	 V 			1.794	1398231.969	0.000	0.000	0.000	1.006
30	34.279	34.207	34.333	33717	6727	0.05	0.00000	 V 	20	C18:2 trans 9, 12 Linolelaidic	1.808	0.000	0.000	0.000	0.000	1.008
31	34.352	34.333	34.464	21156	4406	0.05	0.00000	 V 			1.814	0.000	0.000	0.000	0.000	1.003
32	34.547	34.464	34.622	30016	5581	0.05	0.00000	 V 			1.830	910142.517	0.000	0.000	0.000	1.009
33	34.678	34.622	34.711	12420	2944	0.04	0.00000	 V 			1.841	0.000	0.000	0.000	0.000	1.006
34	34.749	34.711	34.926	25526	3511	0.07	0.00000	 V 			1.847	0.000	0.000	0.000	0.000	1.003
35	35.027	34.926	35.122	101244	20391	0.05	0.00000	 V 			1.870	1312963.984	0.000	0.000	0.000	1.012
36	35.251	35.122	35.430	191680	40280	0.05	0.00000	 V 	21	C18:2 cis 9, 12  Linoleic	1.888	1596472.614	0.000	0.000	1.921	1.010
37	35.522	35.430	35.612	12078	2536	0.05	0.00000	   			1.910	1246611.095	0.000	0.000	2.275	1.012
38	35.692	35.612	35.812	21553	4122	0.05	0.00000	 V 			1.924	1271551.987	0.000	0.000	1.342	1.007
39	36.806	36.708	36.937	30268	6544	0.05	0.00000	   	24	C20:0 Arachidic	2.016	1516451.893	0.000	1.162	9.080	1.047
40	37.163	37.030	37.366	158653	35246	0.05	0.00000	   	23	C18:3n3 Linolinic	2.045	1615645.139	0.000	0.983	3.024	1.014
41	37.535	37.376	37.726	264683	56991	0.05	0.00000	   			2.075	1596694.932	0.000	0.925	3.164	1.015
42	37.822	37.726	37.903	27349	5628	0.05	0.00000	 V 			2.099	1458341.818	0.000	0.000	2.355	1.011
43	37.989	37.903	38.099	18806	3598	0.05	0.00000	 V 			2.112	1183258.319	0.000	0.000	1.266	1.007
44	41.286	41.184	41.445	16276	3050	0.05	0.00000	 V 	31	C22:0 Behenic	2.383	1431044.516	0.000	0.000	23.807	1.128
45	44.347	44.231	44.497	10241	1768	0.06	0.00000	   	33	C20:5	2.633	1368805.370	0.000	1.067	21.187	1.105
46	46.515	46.392	46.676	11172	1774	0.06	0.00000	   	36	C24:0 Lignoceric	2.811	1281403.827	0.000	1.059	13.758	1.067
47	50.947	50.816	51.100	14079	2046	0.07	0.00000	   	38	C22:6n3	3.174	1233222.652	0.000	1.041	25.553	1.129

[Compound Results (Ch1)]
# of IDs	38
ID#	Name	R.Time	Area	Height	Conc.	Curve	3rd	2nd	1st	Constant
1	C4:0 Butyric	12.206	312627	112592	0.00000	Default	0.0000000	0.0000000	0.0000000	0.0000000	
2	C6:0 Caproic	14.118	177877	55117	0.00000	Default	0.0000000	0.0000000	0.0000000	0.0000000	
3	C8:0 Caprylic	16.722	98969	29299	0.00000	Default	0.0000000	0.0000000	0.0000000	0.0000000	
4	C10:0 Capric	19.538	209856	67039	0.00000	Default	0.0000000	0.0000000	0.0000000	0.0000000	
5	C10:1	20.483	24439	7441	0.00000	Default	0.0000000	0.0000000	0.0000000	0.0000000	
6	C11:0 Undecylic	0.000	0	0	0.00000	Default	0.0000000	0.0000000	0.0000000	0.0000000	
7	C12:0 Lauric	22.386	258763	80712	0.00000	Default	0.0000000	0.0000000	0.0000000	0.0000000	
8	C13:0 Tridecylic	23.464	10911	1938	0.00000	Default	0.0000000	0.0000000	0.0000000	0.0000000	
9	C14:0 Myristic	25.429	1169950	307877	0.00000	Default	0.0000000	0.0000000	0.0000000	0.0000000	
10	C14:1n6	26.443	95422	27286	0.00000	Default	0.0000000	0.0000000	0.0000000	0.0000000	
11	C15:0 Pentadecylic	27.028	186845	52732	0.00000	Default	0.0000000	0.0000000	0.0000000	0.0000000	
12	C15:1	27.877	48357	11315	0.00000	Default	0.0000000	0.0000000	0.0000000	0.0000000	
13	C16:0 Palmitic	28.874	3266377	546018	0.00000	Default	0.0000000	0.0000000	0.0000000	0.0000000	
14	C16:1n7 Palmitoleic	29.801	134323	35351	0.00000	Default	0.0000000	0.0000000	0.0000000	0.0000000	
15	C17:0 Margaric	30.627	108242	23416	0.00000	Default	0.0000000	0.0000000	0.0000000	0.0000000	
16	C17:1	31.642	61299	10669	0.00000	Default	0.0000000	0.0000000	0.0000000	0.0000000	
17	C18:0 Stearic	32.732	1755707	240755	0.00000	Default	0.0000000	0.0000000	0.0000000	0.0000000	
18	C18:1 trans 9 Elaidic	33.435	677732	78257	0.00000	Default	0.0000000	0.0000000	0.0000000	0.0000000	
19	C18:1 cis 9 Oleic	33.780	3596369	481865	0.00000	Default	0.0000000	0.0000000	0.0000000	0.0000000	
20	C18:2 trans 9, 12 Linolelaidic	34.279	33717	6727	0.00000	Default	0.0000000	0.0000000	0.0000000	0.0000000	
21	C18:2 cis 9, 12  Linoleic	35.251	191680	40280	0.00000	Default	0.0000000	0.0000000	0.0000000	0.0000000	
22	C18:3n6 Linolenic	0.000	0	0	0.00000	Default	0.0000000	0.0000000	0.0000000	0.0000000	
23	C18:3n3 Linolinic	37.163	158653	35246	0.00000	Default	0.0000000	0.0000000	0.0000000	0.0000000	
24	C20:0 Arachidic	36.806	30268	6544	0.00000	Default	0.0000000	0.0000000	0.0000000	0.0000000	
25	C20:1	0.000	0	0	0.00000	Default	0.0000000	0.0000000	0.0000000	0.0000000	
26	C21:0	0.000	0	0	0.00000	Default	0.0000000	0.0000000	0.0000000	0.0000000	
27	C20:2	0.000	0	0	0.00000	Default	0.0000000	0.0000000	0.0000000	0.0000000	
28	C20:3n6	0.000	0	0	0.00000	Default	0.0000000	0.0000000	0.0000000	0.0000000	
29	C20:4n6	0.000	0	0	0.00000	Default	0.0000000	0.0000000	0.0000000	0.0000000	
30	C20:3n3	0.000	0	0	0.00000	Default	0.0000000	0.0000000	0.0000000	0.0000000	
31	C22:0 Behenic	41.286	16276	3050	0.00000	Default	0.0000000	0.0000000	0.0000000	0.0000000	
32	C22:1	0.000	0	0	0.00000	Default	0.0000000	0.0000000	0.0000000	0.0000000	
33	C20:5	44.347	10241	1768	0.00000	Default	0.0000000	0.0000000	0.0000000	0.0000000	
34	C23.0	0.000	0	0	0.00000	Default	0.0000000	0.0000000	0.0000000	0.0000000	
35	C22:2	0.000	0	0	0.00000	Default	0.0000000	0.0000000	0.0000000	0.0000000	
36	C24:0 Lignoceric	46.515	11172	1774	0.00000	Default	0.0000000	0.0000000	0.0000000	0.0000000	
37	C24:1n9	0.000	0	0	0.00000	Default	0.0000000	0.0000000	0.0000000	0.0000000	
38	C22:6n3	50.947	14079	2046	0.00000	Default	0.0000000	0.0000000	0.0000000	0.0000000	

[Group Results (Ch1)]
# of Groups	0

