[Header]
Data File Name	C:\GCsolution\Data\FAME\2023\11.07.23\0611-4.gcd
Output Date	11/15/2023
Output Time	2:18:02 PM

[File Information]
Type	Data File
Generated	11/7/2023 2:27:54 PM
Generated by	Admin
Modified	11/7/2023 3:28:46 PM
Modified by	Admin

[Sample Information]
Operator Name	Admin
Acquisition Date	11/7/2023 2:33:42 PM
Type	Unknown
Level	1
Sample Name	0611/4
Sample ID	
ISTD Amount1	1
ISTD Amount2	1
ISTD Amount3	1
ISTD Amount4	1
ISTD Amount5	1
ISTD Amount6	1
ISTD Amount7	1
ISTD Amount8	1
ISTD Amount9	1
ISTD Amount10	1
ISTD Amount11	1
ISTD Amount12	1
ISTD Amount13	1
ISTD Amount14	1
ISTD Amount15	1
ISTD Amount16	1
Sample Amount	1
Dilution Factor	1
Vial#	1
Injection Volume	1
Injection Count	1
Bar Code	

[Original Files]
Data File	C:\GCsolution\Data\FAME\2023\11.07.23\0611-4.gcd
Method File	C:\GCsolution\Methods\FAME\FAME 37 mix 07.2023.gcm
Batch File	C:\GCsolution\Data\FAME\2023\11.07.23\1.gcb
Report Format File	C:\GCsolution\Data\FAME\Report.gcr

[File Comment]


[Configration]
Instrument Name	GC-2014AFsc
Instrument #	1
Line #	1

[Peak Table (Ch1)]
# of Peaks	50
Peak#	R.Time	I.Time	F.Time	Area	Height	A/H	Conc.	Mark	ID#	Name	k'	Plate #	Plate Ht.	Tailing	Resolution	Sep.Factor
1	12.197	12.134	12.446	357130	127437	0.03	0.00000	   	1	C4:0 Butyric	0.000	456611.238	0.000	1.171	0.000	0.000
2	14.112	14.038	14.308	211810	65578	0.03	0.00000	   	2	C6:0 Caproic	0.157	462637.492	0.000	1.173	24.749	0.000
3	16.720	16.632	16.889	122392	36786	0.03	0.00000	   	3	C8:0 Caprylic	0.371	608873.469	0.000	1.151	31.000	2.362
4	19.538	19.456	19.745	273006	85219	0.03	0.00000	   	4	C10:0 Capric	0.602	890503.277	0.000	1.086	33.541	1.623
5	20.483	20.408	20.627	26812	7996	0.03	0.00000	   	5	C10:1	0.679	917432.670	0.000	1.163	11.248	1.129
6	22.387	22.288	22.564	325368	100558	0.03	0.00000	   	7	C12:0 Lauric	0.836	1135499.840	0.000	1.024	22.525	1.230
7	24.621	24.533	24.734	30061	8745	0.03	0.00000	   	8	C13:0 Tridecylic	1.019	1202321.392	0.000	1.087	25.760	1.219
8	25.436	25.298	25.714	1384239	351665	0.04	0.00000	   	9	C14:0 Myristic	1.085	977603.161	0.000	0.815	8.479	1.066
9	26.198	26.120	26.348	61485	17472	0.04	0.00000	 V 			1.148	1291957.457	0.000	1.049	7.838	1.058
10	26.444	26.348	26.498	89349	25714	0.03	0.00000	   	10	C14:1n6	1.168	1354345.029	0.000	0.000	2.695	1.018
11	26.549	26.498	26.708	119273	32733	0.04	0.00000	 V 			1.177	1248165.948	0.000	0.000	1.134	1.007
12	27.029	26.922	27.165	200924	55819	0.04	0.00000	   	11	C15:0 Pentadecylic	1.216	1324331.811	0.000	0.999	5.095	1.033
13	27.437	27.361	27.520	10912	2983	0.04	0.00000	   			1.250	1301835.028	0.000	1.188	4.300	1.027
14	27.877	27.776	27.996	51010	11623	0.04	0.00000	   	12	C15:1	1.286	980405.800	0.000	1.186	4.222	1.029
15	28.885	28.644	29.186	3709781	592841	0.06	0.00000	   	13	C16:0 Palmitic	1.368	462989.473	0.000	0.657	7.157	1.064
16	29.296	29.186	29.326	10961	1851	0.06	0.00000	 V 			1.402	0.000	0.000	0.000	0.000	1.025
17	29.410	29.326	29.494	49385	11299	0.04	0.00000	 V 			1.411	1290622.680	0.000	0.000	0.000	1.007
18	29.666	29.494	29.736	119280	19019	0.06	0.00000	 V 			1.432	677745.765	0.000	0.000	2.070	1.015
19	29.803	29.736	29.970	128757	32409	0.04	0.00000	 V 	14	C16:1n7 Palmitoleic	1.444	1389923.640	0.000	0.000	1.118	1.008
20	30.089	29.970	30.156	82699	18261	0.05	0.00000	 V 			1.467	1101928.719	0.000	0.000	2.662	1.016
21	30.182	30.156	30.231	20036	4896	0.04	0.00000	 V 			1.475	0.000	0.000	0.000	0.000	1.005
22	30.260	30.231	30.432	25254	4226	0.06	0.00000	 V 			1.481	0.000	0.000	0.000	0.000	1.004
23	30.628	30.525	30.786	112742	24317	0.05	0.00000	   	15	C17:0 Margaric	1.511	1067174.859	0.000	1.166	0.000	1.020
24	31.640	31.412	31.785	58931	9775	0.06	0.00000	   	16	C17:1	1.594	957255.273	0.000	0.746	8.188	1.055
25	32.739	32.476	32.961	2029226	264530	0.08	0.00000	   	17	C18:0 Stearic	1.684	406585.737	0.000	0.653	6.584	1.057
26	33.442	33.054	33.544	946537	108106	0.09	0.00000	 V 	18	C18:1 trans 9 Elaidic	1.742	375215.757	0.000	0.000	3.325	1.034
27	33.778	33.544	33.843	3414825	456490	0.07	0.00000	 V 	19	C18:1 cis 9 Oleic	1.769	472314.551	0.000	0.632	1.624	1.016
28	33.869	33.843	33.936	82722	24369	0.03	0.00000	 V 			1.777	0.000	0.000	0.000	0.000	1.004
29	33.971	33.936	34.030	26085	6367	0.04	0.00000	 V 			1.785	0.000	0.000	0.000	0.000	1.005
30	34.104	34.030	34.207	79642	16211	0.05	0.00000	 V 			1.796	1276448.437	0.000	0.000	0.000	1.006
31	34.280	34.207	34.468	64921	8794	0.07	0.00000	 V 	20	C18:2 trans 9, 12 Linolelaidic	1.811	792825.002	0.000	0.000	1.282	1.008
32	34.542	34.468	34.622	28338	5181	0.05	0.00000	 V 			1.832	872965.990	0.000	0.000	1.739	1.012
33	34.677	34.622	34.716	14991	3411	0.04	0.00000	 V 			1.843	0.000	0.000	0.000	0.000	1.006
34	34.744	34.716	34.818	16176	3209	0.05	0.00000	 V 			1.849	0.000	0.000	0.000	0.000	1.003
35	34.859	34.818	34.926	10136	2184	0.05	0.00000	 V 			1.858	0.000	0.000	0.000	0.000	1.005
36	35.025	34.926	35.126	108071	21481	0.05	0.00000	 V 			1.872	1292964.893	0.000	0.000	0.000	1.007
37	35.251	35.126	35.430	204999	43529	0.05	0.00000	 V 	21	C18:2 cis 9, 12  Linoleic	1.890	1534312.409	0.000	0.000	1.911	1.010
38	35.522	35.430	35.607	15335	3292	0.05	0.00000	   			1.912	1272513.008	0.000	1.005	2.265	1.012
39	35.691	35.607	35.812	17715	3679	0.05	0.00000	 V 			1.926	1363220.180	0.000	1.122	1.369	1.007
40	36.807	36.699	37.030	32230	6607	0.05	0.00000	   	24	C20:0 Arachidic	2.018	1449136.866	0.000	1.155	9.151	1.048
41	37.162	37.030	37.343	191336	41988	0.05	0.00000	   	23	C18:3n3 Linolinic	2.047	1550333.046	0.000	0.959	2.948	1.014
42	37.535	37.343	37.721	309532	66311	0.05	0.00000	 V 			2.078	1588359.787	0.000	0.906	3.133	1.015
43	37.820	37.721	37.898	25134	4995	0.05	0.00000	 V 			2.101	1382782.205	0.000	0.000	2.303	1.011
44	37.988	37.898	38.099	23155	4437	0.05	0.00000	 V 			2.115	1220020.173	0.000	0.000	1.267	1.007
45	39.286	39.196	39.415	15035	3156	0.05	0.00000	   			2.221	1595050.095	0.000	1.112	9.939	1.050
46	41.280	41.188	41.422	16744	3164	0.05	0.00000	 V 	31	C22:0 Behenic	2.385	1446558.943	0.000	0.000	15.272	1.074
47	41.932	41.870	42.056	10654	2025	0.05	0.00000	 V 			2.438	1287935.857	0.000	0.000	4.589	1.022
48	44.339	44.231	44.474	13595	2392	0.06	0.00000	   	33	C20:5	2.635	1436196.121	0.000	1.130	16.320	1.081
49	46.510	46.387	46.662	13784	2154	0.06	0.00000	   	36	C24:0 Lignoceric	2.813	1196425.797	0.000	1.091	13.689	1.068
50	50.939	50.806	51.119	19416	2694	0.07	0.00000	   	38	C22:6n3	3.177	1073237.059	0.000	1.030	24.215	1.129

[Compound Results (Ch1)]
# of IDs	38
ID#	Name	R.Time	Area	Height	Conc.	Curve	3rd	2nd	1st	Constant
1	C4:0 Butyric	12.197	357130	127437	0.00000	Default	0.0000000	0.0000000	0.0000000	0.0000000	
2	C6:0 Caproic	14.112	211810	65578	0.00000	Default	0.0000000	0.0000000	0.0000000	0.0000000	
3	C8:0 Caprylic	16.720	122392	36786	0.00000	Default	0.0000000	0.0000000	0.0000000	0.0000000	
4	C10:0 Capric	19.538	273006	85219	0.00000	Default	0.0000000	0.0000000	0.0000000	0.0000000	
5	C10:1	20.483	26812	7996	0.00000	Default	0.0000000	0.0000000	0.0000000	0.0000000	
6	C11:0 Undecylic	0.000	0	0	0.00000	Default	0.0000000	0.0000000	0.0000000	0.0000000	
7	C12:0 Lauric	22.387	325368	100558	0.00000	Default	0.0000000	0.0000000	0.0000000	0.0000000	
8	C13:0 Tridecylic	24.621	30061	8745	0.00000	Default	0.0000000	0.0000000	0.0000000	0.0000000	
9	C14:0 Myristic	25.436	1384239	351665	0.00000	Default	0.0000000	0.0000000	0.0000000	0.0000000	
10	C14:1n6	26.444	89349	25714	0.00000	Default	0.0000000	0.0000000	0.0000000	0.0000000	
11	C15:0 Pentadecylic	27.029	200924	55819	0.00000	Default	0.0000000	0.0000000	0.0000000	0.0000000	
12	C15:1	27.877	51010	11623	0.00000	Default	0.0000000	0.0000000	0.0000000	0.0000000	
13	C16:0 Palmitic	28.885	3709781	592841	0.00000	Default	0.0000000	0.0000000	0.0000000	0.0000000	
14	C16:1n7 Palmitoleic	29.803	128757	32409	0.00000	Default	0.0000000	0.0000000	0.0000000	0.0000000	
15	C17:0 Margaric	30.628	112742	24317	0.00000	Default	0.0000000	0.0000000	0.0000000	0.0000000	
16	C17:1	31.640	58931	9775	0.00000	Default	0.0000000	0.0000000	0.0000000	0.0000000	
17	C18:0 Stearic	32.739	2029226	264530	0.00000	Default	0.0000000	0.0000000	0.0000000	0.0000000	
18	C18:1 trans 9 Elaidic	33.442	946537	108106	0.00000	Default	0.0000000	0.0000000	0.0000000	0.0000000	
19	C18:1 cis 9 Oleic	33.778	3414825	456490	0.00000	Default	0.0000000	0.0000000	0.0000000	0.0000000	
20	C18:2 trans 9, 12 Linolelaidic	34.280	64921	8794	0.00000	Default	0.0000000	0.0000000	0.0000000	0.0000000	
21	C18:2 cis 9, 12  Linoleic	35.251	204999	43529	0.00000	Default	0.0000000	0.0000000	0.0000000	0.0000000	
22	C18:3n6 Linolenic	0.000	0	0	0.00000	Default	0.0000000	0.0000000	0.0000000	0.0000000	
23	C18:3n3 Linolinic	37.162	191336	41988	0.00000	Default	0.0000000	0.0000000	0.0000000	0.0000000	
24	C20:0 Arachidic	36.807	32230	6607	0.00000	Default	0.0000000	0.0000000	0.0000000	0.0000000	
25	C20:1	0.000	0	0	0.00000	Default	0.0000000	0.0000000	0.0000000	0.0000000	
26	C21:0	0.000	0	0	0.00000	Default	0.0000000	0.0000000	0.0000000	0.0000000	
27	C20:2	0.000	0	0	0.00000	Default	0.0000000	0.0000000	0.0000000	0.0000000	
28	C20:3n6	0.000	0	0	0.00000	Default	0.0000000	0.0000000	0.0000000	0.0000000	
29	C20:4n6	0.000	0	0	0.00000	Default	0.0000000	0.0000000	0.0000000	0.0000000	
30	C20:3n3	0.000	0	0	0.00000	Default	0.0000000	0.0000000	0.0000000	0.0000000	
31	C22:0 Behenic	41.280	16744	3164	0.00000	Default	0.0000000	0.0000000	0.0000000	0.0000000	
32	C22:1	0.000	0	0	0.00000	Default	0.0000000	0.0000000	0.0000000	0.0000000	
33	C20:5	44.339	13595	2392	0.00000	Default	0.0000000	0.0000000	0.0000000	0.0000000	
34	C23.0	0.000	0	0	0.00000	Default	0.0000000	0.0000000	0.0000000	0.0000000	
35	C22:2	0.000	0	0	0.00000	Default	0.0000000	0.0000000	0.0000000	0.0000000	
36	C24:0 Lignoceric	46.510	13784	2154	0.00000	Default	0.0000000	0.0000000	0.0000000	0.0000000	
37	C24:1n9	0.000	0	0	0.00000	Default	0.0000000	0.0000000	0.0000000	0.0000000	
38	C22:6n3	50.939	19416	2694	0.00000	Default	0.0000000	0.0000000	0.0000000	0.0000000	

[Group Results (Ch1)]
# of Groups	0

