[Header]
Data File Name	C:\GCsolution\Data\FAME\2023\11.07.23\0611-3.gcd
Output Date	11/15/2023
Output Time	2:18:02 PM

[File Information]
Type	Data File
Generated	11/7/2023 1:24:36 PM
Generated by	Admin
Modified	11/7/2023 2:27:53 PM
Modified by	Admin

[Sample Information]
Operator Name	Admin
Acquisition Date	11/7/2023 1:32:51 PM
Type	Unknown
Level	1
Sample Name	0611/3
Sample ID	
ISTD Amount1	1
ISTD Amount2	1
ISTD Amount3	1
ISTD Amount4	1
ISTD Amount5	1
ISTD Amount6	1
ISTD Amount7	1
ISTD Amount8	1
ISTD Amount9	1
ISTD Amount10	1
ISTD Amount11	1
ISTD Amount12	1
ISTD Amount13	1
ISTD Amount14	1
ISTD Amount15	1
ISTD Amount16	1
Sample Amount	1
Dilution Factor	1
Vial#	1
Injection Volume	1
Injection Count	1
Bar Code	

[Original Files]
Data File	C:\GCsolution\Data\FAME\2023\11.07.23\0611-3.gcd
Method File	C:\GCsolution\Methods\FAME\FAME 37 mix 07.2023.gcm
Batch File	C:\GCsolution\Data\FAME\2023\11.07.23\1.gcb
Report Format File	C:\GCsolution\Data\FAME\Report.gcr

[File Comment]


[Configration]
Instrument Name	GC-2014AFsc
Instrument #	1
Line #	1

[Peak Table (Ch1)]
# of Peaks	49
Peak#	R.Time	I.Time	F.Time	Area	Height	A/H	Conc.	Mark	ID#	Name	k'	Plate #	Plate Ht.	Tailing	Resolution	Sep.Factor
1	12.204	12.143	12.479	361784	126258	0.03	0.00000	   	1	C4:0 Butyric	0.000	439101.001	0.000	1.188	0.000	0.000
2	14.118	14.038	14.308	220719	67527	0.03	0.00000	   	2	C6:0 Caproic	0.157	452201.276	0.000	1.174	24.346	0.000
3	16.723	16.637	16.884	132411	39732	0.03	0.00000	   	3	C8:0 Caprylic	0.370	605511.490	0.000	1.149	30.734	2.361
4	19.541	19.451	19.740	303514	95226	0.03	0.00000	   	4	C10:0 Capric	0.601	900592.121	0.000	1.067	33.575	1.624
5	20.485	20.422	20.608	27701	8373	0.03	0.00000	   	5	C10:1	0.678	899643.382	0.000	1.146	11.211	1.129
6	22.389	22.307	22.587	358546	112666	0.03	0.00000	   	7	C12:0 Lauric	0.835	1180582.461	0.000	1.021	22.622	1.230
7	23.855	23.777	23.959	10068	3089	0.03	0.00000	   	8	C13:0 Tridecylic	0.955	1263519.192	0.000	1.058	17.566	1.144
8	24.622	24.538	24.715	23542	6867	0.03	0.00000	   			1.017	1178497.266	0.000	1.074	8.758	1.066
9	25.435	25.298	25.676	1359824	346538	0.04	0.00000	   	9	C14:0 Myristic	1.084	997784.958	0.000	0.821	8.471	1.066
10	26.198	26.124	26.339	47521	13389	0.04	0.00000	 V 			1.147	1287178.138	0.000	1.051	7.875	1.058
11	26.443	26.339	26.498	87862	25174	0.03	0.00000	   	10	C14:1n6	1.167	1335072.031	0.000	0.000	2.679	1.018
12	26.548	26.498	26.731	108742	29150	0.04	0.00000	 V 			1.175	1191334.865	0.000	0.000	1.114	1.007
13	27.027	26.936	27.202	169399	47068	0.04	0.00000	   	11	C15:0 Pentadecylic	1.215	1328924.475	0.000	1.028	5.027	1.033
14	27.440	27.352	27.520	10368	2689	0.04	0.00000	   			1.248	1234319.321	0.000	0.000	4.297	1.028
15	27.878	27.786	27.986	44484	10347	0.04	0.00000	   	12	C15:1	1.284	1025868.918	0.000	1.157	4.200	1.029
16	28.878	28.644	29.190	3421626	571737	0.06	0.00000	   	13	C16:0 Palmitic	1.366	520846.693	0.000	0.663	7.430	1.064
17	29.407	29.335	29.489	47547	11380	0.04	0.00000	 V 			1.410	1351022.073	0.000	0.000	4.061	1.032
18	29.665	29.489	29.736	110454	17483	0.06	0.00000	 V 			1.431	689837.678	0.000	0.000	2.115	1.015
19	29.800	29.736	29.965	116911	30333	0.04	0.00000	 V 	14	C16:1n7 Palmitoleic	1.442	1472650.646	0.000	0.000	1.128	1.008
20	30.087	29.965	30.152	74689	17019	0.04	0.00000	 V 			1.465	1150109.446	0.000	0.000	2.730	1.016
21	30.182	30.152	30.231	20204	4766	0.04	0.00000	 V 			1.473	0.000	0.000	0.000	0.000	1.005
22	30.261	30.231	30.427	22002	3870	0.06	0.00000	 V 			1.479	0.000	0.000	0.000	0.000	1.004
23	30.625	30.530	30.782	88581	19570	0.05	0.00000	   	15	C17:0 Margaric	1.509	1088185.735	0.000	1.177	0.000	1.020
24	31.639	31.416	31.790	47424	7889	0.06	0.00000	   	16	C17:1	1.592	973322.542	0.000	0.736	8.278	1.055
25	32.725	32.466	32.942	1719179	240889	0.07	0.00000	   	17	C18:0 Stearic	1.681	462046.277	0.000	0.660	6.788	1.056
26	33.440	33.059	33.540	1040033	121766	0.09	0.00000	 V 	18	C18:1 trans 9 Elaidic	1.740	388462.347	0.000	0.000	3.520	1.035
27	33.762	33.540	33.834	2943816	414400	0.07	0.00000	 V 	19	C18:1 cis 9 Oleic	1.766	529415.724	0.000	0.634	1.615	1.015
28	33.861	33.834	33.927	70992	20453	0.03	0.00000	 V 			1.775	0.000	0.000	0.000	0.000	1.005
29	33.965	33.927	34.025	24883	5821	0.04	0.00000	 V 			1.783	0.000	0.000	0.000	0.000	1.005
30	34.101	34.025	34.202	92762	19375	0.05	0.00000	 V 			1.794	1322288.913	0.000	0.000	0.000	1.006
31	34.275	34.202	34.464	72081	9688	0.07	0.00000	 V 	20	C18:2 trans 9, 12 Linolelaidic	1.808	832830.809	0.000	0.000	1.299	1.008
32	34.540	34.464	34.622	35474	6332	0.06	0.00000	 V 			1.830	826030.829	0.000	0.000	1.760	1.012
33	34.674	34.622	34.702	10350	2644	0.04	0.00000	 V 			1.841	0.000	0.000	0.000	0.000	1.006
34	34.745	34.702	34.814	20511	3737	0.05	0.00000	 V 			1.847	0.000	0.000	0.000	0.000	1.003
35	34.851	34.814	34.926	12536	2693	0.05	0.00000	 V 			1.856	0.000	0.000	0.000	0.000	1.005
36	35.023	34.926	35.131	112434	21896	0.05	0.00000	 V 			1.870	1331704.928	0.000	0.000	0.000	1.008
37	35.246	35.131	35.430	179296	36868	0.05	0.00000	 V 	21	C18:2 cis 9, 12  Linoleic	1.888	1463871.494	0.000	0.000	1.882	1.010
38	35.517	35.430	35.607	13779	3118	0.04	0.00000	 V 			1.910	1433021.460	0.000	1.016	2.309	1.012
39	35.687	35.607	35.808	13278	2702	0.05	0.00000	   			1.924	1250441.319	0.000	1.269	1.387	1.007
40	36.804	36.713	36.904	21828	5079	0.04	0.00000	   	24	C20:0 Arachidic	2.016	1650232.158	0.000	1.004	9.242	1.048
41	37.159	37.035	37.348	157171	35091	0.04	0.00000	   	23	C18:3n3 Linolinic	2.045	1602841.035	0.000	0.975	3.070	1.014
42	37.535	37.366	37.726	337436	73224	0.05	0.00000	   			2.076	1636273.985	0.000	0.901	3.216	1.015
43	37.817	37.726	37.894	20151	4008	0.05	0.00000	 V 			2.099	1392349.060	0.000	0.000	2.296	1.011
44	37.986	37.894	38.080	18448	3519	0.05	0.00000	 V 			2.112	1214867.961	0.000	0.000	1.274	1.007
45	39.288	39.177	39.429	13501	2752	0.05	0.00000	   			2.219	1576470.858	0.000	1.031	9.930	1.051
46	41.281	41.165	41.403	13290	2557	0.05	0.00000	 V 	31	C22:0 Behenic	2.382	1596451.577	0.000	0.000	15.620	1.074
47	44.340	44.226	44.455	11218	1937	0.06	0.00000	   	33	C20:5	2.633	1288231.034	0.000	0.985	21.377	1.105
48	46.506	46.364	46.644	12469	1962	0.06	0.00000	   	36	C24:0 Lignoceric	2.811	1290254.286	0.000	0.921	13.574	1.067
49	50.938	50.811	51.100	14910	2211	0.07	0.00000	   	38	C22:6n3	3.174	1274135.440	0.000	1.061	25.817	1.129

[Compound Results (Ch1)]
# of IDs	38
ID#	Name	R.Time	Area	Height	Conc.	Curve	3rd	2nd	1st	Constant
1	C4:0 Butyric	12.204	361784	126258	0.00000	Default	0.0000000	0.0000000	0.0000000	0.0000000	
2	C6:0 Caproic	14.118	220719	67527	0.00000	Default	0.0000000	0.0000000	0.0000000	0.0000000	
3	C8:0 Caprylic	16.723	132411	39732	0.00000	Default	0.0000000	0.0000000	0.0000000	0.0000000	
4	C10:0 Capric	19.541	303514	95226	0.00000	Default	0.0000000	0.0000000	0.0000000	0.0000000	
5	C10:1	20.485	27701	8373	0.00000	Default	0.0000000	0.0000000	0.0000000	0.0000000	
6	C11:0 Undecylic	0.000	0	0	0.00000	Default	0.0000000	0.0000000	0.0000000	0.0000000	
7	C12:0 Lauric	22.389	358546	112666	0.00000	Default	0.0000000	0.0000000	0.0000000	0.0000000	
8	C13:0 Tridecylic	23.855	10068	3089	0.00000	Default	0.0000000	0.0000000	0.0000000	0.0000000	
9	C14:0 Myristic	25.435	1359824	346538	0.00000	Default	0.0000000	0.0000000	0.0000000	0.0000000	
10	C14:1n6	26.443	87862	25174	0.00000	Default	0.0000000	0.0000000	0.0000000	0.0000000	
11	C15:0 Pentadecylic	27.027	169399	47068	0.00000	Default	0.0000000	0.0000000	0.0000000	0.0000000	
12	C15:1	27.878	44484	10347	0.00000	Default	0.0000000	0.0000000	0.0000000	0.0000000	
13	C16:0 Palmitic	28.878	3421626	571737	0.00000	Default	0.0000000	0.0000000	0.0000000	0.0000000	
14	C16:1n7 Palmitoleic	29.800	116911	30333	0.00000	Default	0.0000000	0.0000000	0.0000000	0.0000000	
15	C17:0 Margaric	30.625	88581	19570	0.00000	Default	0.0000000	0.0000000	0.0000000	0.0000000	
16	C17:1	31.639	47424	7889	0.00000	Default	0.0000000	0.0000000	0.0000000	0.0000000	
17	C18:0 Stearic	32.725	1719179	240889	0.00000	Default	0.0000000	0.0000000	0.0000000	0.0000000	
18	C18:1 trans 9 Elaidic	33.440	1040033	121766	0.00000	Default	0.0000000	0.0000000	0.0000000	0.0000000	
19	C18:1 cis 9 Oleic	33.762	2943816	414400	0.00000	Default	0.0000000	0.0000000	0.0000000	0.0000000	
20	C18:2 trans 9, 12 Linolelaidic	34.275	72081	9688	0.00000	Default	0.0000000	0.0000000	0.0000000	0.0000000	
21	C18:2 cis 9, 12  Linoleic	35.246	179296	36868	0.00000	Default	0.0000000	0.0000000	0.0000000	0.0000000	
22	C18:3n6 Linolenic	0.000	0	0	0.00000	Default	0.0000000	0.0000000	0.0000000	0.0000000	
23	C18:3n3 Linolinic	37.159	157171	35091	0.00000	Default	0.0000000	0.0000000	0.0000000	0.0000000	
24	C20:0 Arachidic	36.804	21828	5079	0.00000	Default	0.0000000	0.0000000	0.0000000	0.0000000	
25	C20:1	0.000	0	0	0.00000	Default	0.0000000	0.0000000	0.0000000	0.0000000	
26	C21:0	0.000	0	0	0.00000	Default	0.0000000	0.0000000	0.0000000	0.0000000	
27	C20:2	0.000	0	0	0.00000	Default	0.0000000	0.0000000	0.0000000	0.0000000	
28	C20:3n6	0.000	0	0	0.00000	Default	0.0000000	0.0000000	0.0000000	0.0000000	
29	C20:4n6	0.000	0	0	0.00000	Default	0.0000000	0.0000000	0.0000000	0.0000000	
30	C20:3n3	0.000	0	0	0.00000	Default	0.0000000	0.0000000	0.0000000	0.0000000	
31	C22:0 Behenic	41.281	13290	2557	0.00000	Default	0.0000000	0.0000000	0.0000000	0.0000000	
32	C22:1	0.000	0	0	0.00000	Default	0.0000000	0.0000000	0.0000000	0.0000000	
33	C20:5	44.340	11218	1937	0.00000	Default	0.0000000	0.0000000	0.0000000	0.0000000	
34	C23.0	0.000	0	0	0.00000	Default	0.0000000	0.0000000	0.0000000	0.0000000	
35	C22:2	0.000	0	0	0.00000	Default	0.0000000	0.0000000	0.0000000	0.0000000	
36	C24:0 Lignoceric	46.506	12469	1962	0.00000	Default	0.0000000	0.0000000	0.0000000	0.0000000	
37	C24:1n9	0.000	0	0	0.00000	Default	0.0000000	0.0000000	0.0000000	0.0000000	
38	C22:6n3	50.938	14910	2211	0.00000	Default	0.0000000	0.0000000	0.0000000	0.0000000	

[Group Results (Ch1)]
# of Groups	0

