[Header]
Data File Name	C:\GCsolution\Data\FAME\2023\11.07.23\0611-5.gcd
Output Date	11/15/2023
Output Time	2:18:02 PM

[File Information]
Type	Data File
Generated	11/7/2023 3:28:46 PM
Generated by	Admin
Modified	11/7/2023 4:32:09 PM
Modified by	Admin

[Sample Information]
Operator Name	Admin
Acquisition Date	11/7/2023 3:37:04 PM
Type	Unknown
Level	1
Sample Name	0611/5
Sample ID	
ISTD Amount1	1
ISTD Amount2	1
ISTD Amount3	1
ISTD Amount4	1
ISTD Amount5	1
ISTD Amount6	1
ISTD Amount7	1
ISTD Amount8	1
ISTD Amount9	1
ISTD Amount10	1
ISTD Amount11	1
ISTD Amount12	1
ISTD Amount13	1
ISTD Amount14	1
ISTD Amount15	1
ISTD Amount16	1
Sample Amount	1
Dilution Factor	1
Vial#	1
Injection Volume	1
Injection Count	1
Bar Code	

[Original Files]
Data File	C:\GCsolution\Data\FAME\2023\11.07.23\0611-5.gcd
Method File	C:\GCsolution\Methods\FAME\FAME 37 mix 07.2023.gcm
Batch File	C:\GCsolution\Data\FAME\2023\11.07.23\1.gcb
Report Format File	C:\GCsolution\Data\FAME\Report.gcr

[File Comment]


[Configration]
Instrument Name	GC-2014AFsc
Instrument #	1
Line #	1

[Peak Table (Ch1)]
# of Peaks	49
Peak#	R.Time	I.Time	F.Time	Area	Height	A/H	Conc.	Mark	ID#	Name	k'	Plate #	Plate Ht.	Tailing	Resolution	Sep.Factor
1	12.201	12.139	12.465	374641	133675	0.03	0.00000	   	1	C4:0 Butyric	0.000	457684.902	0.000	1.172	0.000	0.000
2	14.115	14.043	14.355	242368	74959	0.03	0.00000	   	2	C6:0 Caproic	0.157	465414.889	0.000	1.176	24.780	0.000
3	16.721	16.642	16.861	148081	44303	0.03	0.00000	   	3	C8:0 Caprylic	0.370	595917.944	0.000	1.143	30.845	2.361
4	19.541	19.437	19.820	349847	109380	0.03	0.00000	   	4	C10:0 Capric	0.602	908642.699	0.000	1.057	33.527	1.624
5	20.483	20.403	20.632	31057	9202	0.03	0.00000	   	5	C10:1	0.679	901831.628	0.000	1.197	11.226	1.128
6	22.389	22.284	22.573	403897	126075	0.03	0.00000	   	7	C12:0 Lauric	0.835	1160511.056	0.000	1.015	22.561	1.230
7	23.854	23.777	23.964	10796	3194	0.03	0.00000	   	8	C13:0 Tridecylic	0.955	1152421.142	0.000	1.075	17.078	1.144
8	24.620	24.547	24.729	26390	7736	0.03	0.00000	   			1.018	1212184.748	0.000	1.104	8.621	1.066
9	25.439	25.308	25.691	1554687	380936	0.04	0.00000	   	9	C14:0 Myristic	1.085	909554.011	0.000	0.806	8.374	1.066
10	26.199	26.125	26.311	54013	15388	0.04	0.00000	 V 			1.147	1288054.795	0.000	1.044	7.651	1.057
11	26.444	26.344	26.498	94680	27260	0.03	0.00000	   	10	C14:1n6	1.167	1344223.324	0.000	0.000	2.676	1.017
12	26.549	26.498	26.703	113052	30796	0.04	0.00000	 V 			1.176	1233379.245	0.000	0.000	1.129	1.007
13	27.027	26.913	27.179	177986	49617	0.04	0.00000	   	11	C15:0 Pentadecylic	1.215	1325704.637	0.000	1.025	5.062	1.033
14	27.439	27.371	27.520	10341	2779	0.04	0.00000	   			1.249	1260092.720	0.000	0.000	4.307	1.028
15	27.877	27.776	27.996	47930	10795	0.04	0.00000	   	12	C15:1	1.285	940285.066	0.000	1.144	4.132	1.029
16	28.888	28.640	29.172	3820023	603174	0.06	0.00000	   	13	C16:0 Palmitic	1.368	466339.548	0.000	0.652	7.129	1.064
17	29.288	29.172	29.335	12128	1695	0.07	0.00000	 V 			1.400	0.000	0.000	0.000	0.000	1.024
18	29.411	29.335	29.494	51683	11936	0.04	0.00000	 V 			1.410	1260182.144	0.000	0.000	0.000	1.007
19	29.665	29.494	29.736	111988	18308	0.06	0.00000	 V 			1.431	703994.948	0.000	0.000	2.065	1.015
20	29.803	29.736	29.970	125747	32179	0.04	0.00000	SV 	14	C16:1n7 Palmitoleic	1.443	1442746.235	0.000	0.000	1.148	1.008
21	30.089	29.970	30.157	80745	17935	0.05	0.00000	 V 			1.466	1137618.936	0.000	0.000	2.711	1.016
22	30.180	30.157	30.231	19465	4967	0.04	0.00000	 V 			1.473	0.000	0.000	0.000	0.000	1.005
23	30.265	30.231	30.422	21675	3710	0.06	0.00000	 V 			1.480	0.000	0.000	0.000	0.000	1.005
24	30.626	30.535	30.782	99394	21414	0.05	0.00000	 V 	15	C17:0 Margaric	1.510	1045467.819	0.000	1.152	0.000	1.020
25	31.639	31.412	31.790	51231	8393	0.06	0.00000	   	16	C17:1	1.593	938217.792	0.000	0.733	8.115	1.055
26	32.730	32.462	32.929	1843748	247852	0.07	0.00000	   	17	C18:0 Stearic	1.682	410075.142	0.000	0.657	6.524	1.056
27	33.439	33.054	33.535	993506	116750	0.09	0.00000	   	18	C18:1 trans 9 Elaidic	1.741	388239.551	0.000	0.000	3.395	1.035
28	33.764	33.535	33.834	2960096	414697	0.07	0.00000	 V 	19	C18:1 cis 9 Oleic	1.767	514294.760	0.000	0.637	1.617	1.015
29	33.862	33.834	33.927	73320	21229	0.03	0.00000	 V 			1.775	0.000	0.000	0.000	0.000	1.005
30	33.965	33.927	34.025	23980	5794	0.04	0.00000	 V 			1.784	0.000	0.000	0.000	0.000	1.005
31	34.100	34.025	34.203	78872	16557	0.05	0.00000	 V 			1.795	1334285.427	0.000	0.000	0.000	1.006
32	34.275	34.203	34.464	60839	8730	0.07	0.00000	 V 	20	C18:2 trans 9, 12 Linolelaidic	1.809	939415.816	0.000	0.000	1.351	1.008
33	34.537	34.464	34.618	26126	4806	0.05	0.00000	 V 			1.831	858835.793	0.000	0.000	1.811	1.012
34	34.675	34.618	34.706	11487	2784	0.04	0.00000	 V 			1.842	0.000	0.000	0.000	0.000	1.006
35	34.745	34.706	34.814	15465	2884	0.05	0.00000	 V 			1.848	0.000	0.000	0.000	0.000	1.003
36	35.021	34.926	35.131	98562	19189	0.05	0.00000	 V 			1.870	1293876.308	0.000	0.000	0.000	1.012
37	35.247	35.131	35.430	185355	40016	0.05	0.00000	 V 	21	C18:2 cis 9, 12  Linoleic	1.889	1573625.356	0.000	0.000	1.919	1.010
38	35.517	35.430	35.612	14916	3256	0.05	0.00000	   			1.911	1322886.014	0.000	1.001	2.303	1.012
39	35.688	35.612	35.817	14691	2932	0.05	0.00000	 V 			1.925	1191130.582	0.000	1.214	1.349	1.007
40	36.804	36.704	37.002	26845	5581	0.05	0.00000	   	24	C20:0 Arachidic	2.016	1478843.648	0.000	1.207	8.879	1.047
41	37.158	37.002	37.301	159307	35942	0.04	0.00000	 V 	23	C18:3n3 Linolinic	2.045	1668112.088	0.000	0.969	3.011	1.014
42	37.534	37.380	37.726	306136	66230	0.05	0.00000	   			2.076	1598127.661	0.000	0.902	3.223	1.015
43	37.816	37.726	37.894	19776	3975	0.05	0.00000	 V 			2.099	1394802.329	0.000	0.000	2.295	1.011
44	37.986	37.894	38.090	19613	3793	0.05	0.00000	 V 			2.113	1209882.545	0.000	0.000	1.274	1.007
45	39.285	39.182	39.406	13569	2898	0.05	0.00000	   			2.220	1639381.111	0.000	1.084	9.986	1.050
46	41.279	41.184	41.403	13154	2552	0.05	0.00000	 V 	31	C22:0 Behenic	2.383	1470679.871	0.000	0.977	15.447	1.074
47	44.339	44.212	44.469	12097	2140	0.06	0.00000	   	33	C20:5	2.634	1451146.226	0.000	0.931	21.655	1.105
48	46.507	46.387	46.676	13054	1988	0.07	0.00000	   	36	C24:0 Lignoceric	2.812	1259186.332	0.000	1.156	13.889	1.067
49	50.937	50.811	51.100	17312	2462	0.07	0.00000	   	38	C22:6n3	3.175	1161052.932	0.000	1.124	25.036	1.129

[Compound Results (Ch1)]
# of IDs	38
ID#	Name	R.Time	Area	Height	Conc.	Curve	3rd	2nd	1st	Constant
1	C4:0 Butyric	12.201	374641	133675	0.00000	Default	0.0000000	0.0000000	0.0000000	0.0000000	
2	C6:0 Caproic	14.115	242368	74959	0.00000	Default	0.0000000	0.0000000	0.0000000	0.0000000	
3	C8:0 Caprylic	16.721	148081	44303	0.00000	Default	0.0000000	0.0000000	0.0000000	0.0000000	
4	C10:0 Capric	19.541	349847	109380	0.00000	Default	0.0000000	0.0000000	0.0000000	0.0000000	
5	C10:1	20.483	31057	9202	0.00000	Default	0.0000000	0.0000000	0.0000000	0.0000000	
6	C11:0 Undecylic	0.000	0	0	0.00000	Default	0.0000000	0.0000000	0.0000000	0.0000000	
7	C12:0 Lauric	22.389	403897	126075	0.00000	Default	0.0000000	0.0000000	0.0000000	0.0000000	
8	C13:0 Tridecylic	23.854	10796	3194	0.00000	Default	0.0000000	0.0000000	0.0000000	0.0000000	
9	C14:0 Myristic	25.439	1554687	380936	0.00000	Default	0.0000000	0.0000000	0.0000000	0.0000000	
10	C14:1n6	26.444	94680	27260	0.00000	Default	0.0000000	0.0000000	0.0000000	0.0000000	
11	C15:0 Pentadecylic	27.027	177986	49617	0.00000	Default	0.0000000	0.0000000	0.0000000	0.0000000	
12	C15:1	27.877	47930	10795	0.00000	Default	0.0000000	0.0000000	0.0000000	0.0000000	
13	C16:0 Palmitic	28.888	3820023	603174	0.00000	Default	0.0000000	0.0000000	0.0000000	0.0000000	
14	C16:1n7 Palmitoleic	29.803	125747	32179	0.00000	Default	0.0000000	0.0000000	0.0000000	0.0000000	
15	C17:0 Margaric	30.626	99394	21414	0.00000	Default	0.0000000	0.0000000	0.0000000	0.0000000	
16	C17:1	31.639	51231	8393	0.00000	Default	0.0000000	0.0000000	0.0000000	0.0000000	
17	C18:0 Stearic	32.730	1843748	247852	0.00000	Default	0.0000000	0.0000000	0.0000000	0.0000000	
18	C18:1 trans 9 Elaidic	33.439	993506	116750	0.00000	Default	0.0000000	0.0000000	0.0000000	0.0000000	
19	C18:1 cis 9 Oleic	33.764	2960096	414697	0.00000	Default	0.0000000	0.0000000	0.0000000	0.0000000	
20	C18:2 trans 9, 12 Linolelaidic	34.275	60839	8730	0.00000	Default	0.0000000	0.0000000	0.0000000	0.0000000	
21	C18:2 cis 9, 12  Linoleic	35.247	185355	40016	0.00000	Default	0.0000000	0.0000000	0.0000000	0.0000000	
22	C18:3n6 Linolenic	0.000	0	0	0.00000	Default	0.0000000	0.0000000	0.0000000	0.0000000	
23	C18:3n3 Linolinic	37.158	159307	35942	0.00000	Default	0.0000000	0.0000000	0.0000000	0.0000000	
24	C20:0 Arachidic	36.804	26845	5581	0.00000	Default	0.0000000	0.0000000	0.0000000	0.0000000	
25	C20:1	0.000	0	0	0.00000	Default	0.0000000	0.0000000	0.0000000	0.0000000	
26	C21:0	0.000	0	0	0.00000	Default	0.0000000	0.0000000	0.0000000	0.0000000	
27	C20:2	0.000	0	0	0.00000	Default	0.0000000	0.0000000	0.0000000	0.0000000	
28	C20:3n6	0.000	0	0	0.00000	Default	0.0000000	0.0000000	0.0000000	0.0000000	
29	C20:4n6	0.000	0	0	0.00000	Default	0.0000000	0.0000000	0.0000000	0.0000000	
30	C20:3n3	0.000	0	0	0.00000	Default	0.0000000	0.0000000	0.0000000	0.0000000	
31	C22:0 Behenic	41.279	13154	2552	0.00000	Default	0.0000000	0.0000000	0.0000000	0.0000000	
32	C22:1	0.000	0	0	0.00000	Default	0.0000000	0.0000000	0.0000000	0.0000000	
33	C20:5	44.339	12097	2140	0.00000	Default	0.0000000	0.0000000	0.0000000	0.0000000	
34	C23.0	0.000	0	0	0.00000	Default	0.0000000	0.0000000	0.0000000	0.0000000	
35	C22:2	0.000	0	0	0.00000	Default	0.0000000	0.0000000	0.0000000	0.0000000	
36	C24:0 Lignoceric	46.507	13054	1988	0.00000	Default	0.0000000	0.0000000	0.0000000	0.0000000	
37	C24:1n9	0.000	0	0	0.00000	Default	0.0000000	0.0000000	0.0000000	0.0000000	
38	C22:6n3	50.937	17312	2462	0.00000	Default	0.0000000	0.0000000	0.0000000	0.0000000	

[Group Results (Ch1)]
# of Groups	0

