[Header]
Data File Name	C:\GCsolution\Data\FAME\2023\11.07.23\0611-2.gcd
Output Date	11/15/2023
Output Time	2:18:02 PM

[File Information]
Type	Data File
Generated	11/7/2023 12:23:17 PM
Generated by	Admin
Modified	11/7/2023 1:24:35 PM
Modified by	Admin

[Sample Information]
Operator Name	Admin
Acquisition Date	11/7/2023 12:29:32 PM
Type	Unknown
Level	1
Sample Name	0611/2
Sample ID	
ISTD Amount1	1
ISTD Amount2	1
ISTD Amount3	1
ISTD Amount4	1
ISTD Amount5	1
ISTD Amount6	1
ISTD Amount7	1
ISTD Amount8	1
ISTD Amount9	1
ISTD Amount10	1
ISTD Amount11	1
ISTD Amount12	1
ISTD Amount13	1
ISTD Amount14	1
ISTD Amount15	1
ISTD Amount16	1
Sample Amount	1
Dilution Factor	1
Vial#	1
Injection Volume	1
Injection Count	1
Bar Code	

[Original Files]
Data File	C:\GCsolution\Data\FAME\2023\11.07.23\0611-2.gcd
Method File	C:\GCsolution\Methods\FAME\FAME 37 mix 07.2023.gcm
Batch File	C:\GCsolution\Data\FAME\2023\11.07.23\1.gcb
Report Format File	C:\GCsolution\Data\FAME\Report.gcr

[File Comment]


[Configration]
Instrument Name	GC-2014AFsc
Instrument #	1
Line #	1

[Peak Table (Ch1)]
# of Peaks	47
Peak#	R.Time	I.Time	F.Time	Area	Height	A/H	Conc.	Mark	ID#	Name	k'	Plate #	Plate Ht.	Tailing	Resolution	Sep.Factor
1	12.202	12.138	12.451	336971	119968	0.03	0.00000	   	1	C4:0 Butyric	0.000	454514.625	0.000	1.185	0.000	0.000
2	14.117	14.042	14.369	212217	65073	0.03	0.00000	   	2	C6:0 Caproic	0.157	459858.236	0.000	1.183	24.675	0.000
3	16.724	16.642	16.936	130489	39011	0.03	0.00000	   	3	C8:0 Caprylic	0.371	610421.945	0.000	1.160	30.952	2.361
4	19.543	19.446	19.740	310975	97335	0.03	0.00000	   	4	C10:0 Capric	0.602	893375.857	0.000	1.077	33.581	1.623
5	20.487	20.403	20.599	26497	8014	0.03	0.00000	   	5	C10:1	0.679	921471.267	0.000	1.159	11.262	1.129
6	22.393	22.302	22.564	374394	117081	0.03	0.00000	   	7	C12:0 Lauric	0.835	1165709.470	0.000	1.008	22.704	1.230
7	23.469	23.366	23.618	10188	1911	0.05	0.00000	   			0.923	422165.529	0.000	1.086	9.487	1.106
8	23.857	23.782	23.950	10224	3107	0.03	0.00000	   	8	C13:0 Tridecylic	0.955	1195850.566	0.000	1.096	3.363	1.034
9	24.625	24.556	24.720	21549	6302	0.03	0.00000	   			1.018	1177345.622	0.000	1.077	8.644	1.066
10	25.440	25.294	25.728	1425685	354327	0.04	0.00000	   	9	C14:0 Myristic	1.085	936247.973	0.000	0.821	8.341	1.066
11	26.202	26.120	26.306	44342	12536	0.04	0.00000	   			1.147	1264197.386	0.000	1.055	7.701	1.058
12	26.447	26.306	26.502	85060	24527	0.03	0.00000	   	10	C14:1n6	1.167	1370877.059	0.000	0.000	2.685	1.018
13	26.551	26.502	26.722	96207	25850	0.04	0.00000	 V 			1.176	1190223.710	0.000	0.000	1.111	1.007
14	27.032	26.936	27.202	165037	46227	0.04	0.00000	   	11	C15:0 Pentadecylic	1.215	1350461.927	0.000	1.022	5.057	1.033
15	27.883	27.781	27.996	44838	10414	0.04	0.00000	   	12	C15:1	1.285	998828.743	0.000	1.100	8.341	1.057
16	28.890	28.654	29.195	3699319	592812	0.06	0.00000	   	13	C16:0 Palmitic	1.368	480961.878	0.000	0.653	7.260	1.064
17	29.414	29.335	29.494	36490	8287	0.04	0.00000	 V 			1.411	1258406.324	0.000	0.000	3.872	1.031
18	29.670	29.494	29.741	97917	16042	0.06	0.00000	 V 			1.432	694210.084	0.000	0.000	2.075	1.015
19	29.807	29.741	29.979	123580	32183	0.04	0.00000	SV 	14	C16:1n7 Palmitoleic	1.443	1482700.525	0.000	0.000	1.142	1.008
20	30.092	29.979	30.161	71789	16045	0.04	0.00000	 V 			1.466	1131037.183	0.000	0.000	2.711	1.016
21	30.181	30.161	30.240	17267	4437	0.04	0.00000	 V 			1.473	0.000	0.000	0.000	0.000	1.005
22	30.268	30.240	30.446	14780	2682	0.06	0.00000	 V 			1.481	0.000	0.000	0.000	0.000	1.005
23	30.631	30.534	30.791	85545	18968	0.05	0.00000	   	15	C17:0 Margaric	1.510	1086515.834	0.000	1.132	0.000	1.020
24	31.645	31.426	31.780	44188	7336	0.06	0.00000	   	16	C17:1	1.593	947995.430	0.000	0.734	8.217	1.055
25	32.730	32.462	32.933	1723055	239386	0.07	0.00000	   	17	C18:0 Stearic	1.682	449260.993	0.000	0.661	6.683	1.056
26	33.434	33.064	33.540	739690	84798	0.09	0.00000	   	18	C18:1 trans 9 Elaidic	1.740	380243.783	0.000	0.000	3.425	1.034
27	33.770	33.540	33.838	3117400	431770	0.07	0.00000	 V 	19	C18:1 cis 9 Oleic	1.768	492749.625	0.000	0.636	1.649	1.016
28	33.865	33.838	33.927	70643	20829	0.03	0.00000	 V 			1.775	0.000	0.000	0.000	0.000	1.004
29	33.971	33.927	34.034	34925	8261	0.04	0.00000	 V 			1.784	1147270.829	0.000	0.000	0.000	1.005
30	34.104	34.034	34.207	71266	15401	0.05	0.00000	 V 			1.795	1414225.947	0.000	0.000	1.106	1.006
31	34.278	34.207	34.464	48310	6729	0.07	0.00000	 V 	20	C18:2 trans 9, 12 Linolelaidic	1.809	770478.683	0.000	0.000	1.289	1.008
32	34.543	34.464	34.627	27696	5159	0.05	0.00000	 V 			1.831	921797.779	0.000	0.000	1.769	1.012
33	34.751	34.706	34.926	21680	2832	0.08	0.00000	 V 			1.848	0.000	0.000	0.000	0.000	1.009
34	35.027	34.930	35.117	73402	14637	0.05	0.00000	   			1.871	1234528.801	0.000	0.000	0.000	1.012
35	35.255	35.117	35.434	285353	62574	0.05	0.00000	 V 	21	C18:2 cis 9, 12  Linoleic	1.889	1580774.427	0.000	0.821	1.923	1.010
36	35.524	35.434	35.607	14020	3037	0.05	0.00000	   			1.911	1255115.621	0.000	0.983	2.253	1.012
37	35.691	35.607	35.826	13211	2717	0.05	0.00000	 V 			1.925	1321291.420	0.000	1.242	1.338	1.007
38	36.807	36.713	36.928	23382	5262	0.04	0.00000	   	24	C20:0 Arachidic	2.016	1567291.453	0.000	1.021	9.250	1.047
39	37.162	37.035	37.315	131183	30075	0.04	0.00000	   	23	C18:3n3 Linolinic	2.046	1712865.399	0.000	0.979	3.083	1.014
40	37.533	37.371	37.726	237857	51546	0.05	0.00000	   			2.076	1655940.871	0.000	0.932	3.227	1.015
41	37.821	37.726	37.898	21860	4341	0.05	0.00000	 V 			2.100	1406307.745	0.000	0.000	2.368	1.011
42	37.986	37.898	38.094	19095	3310	0.06	0.00000	 V 			2.113	921599.873	0.000	0.000	1.157	1.006
43	39.291	39.182	39.410	11566	2347	0.05	0.00000	   			2.220	1643698.215	0.000	1.060	9.318	1.051
44	41.283	41.170	41.431	12912	2312	0.06	0.00000	 V 	31	C22:0 Behenic	2.383	1444392.425	0.000	0.000	15.363	1.074
45	41.936	41.772	42.080	15614	2656	0.06	0.00000	   			2.437	1481319.099	0.000	0.839	4.763	1.022
46	46.514	46.378	46.658	10163	1575	0.06	0.00000	   	36	C24:0 Lignoceric	2.812	1226678.184	0.000	0.967	30.020	1.154
47	50.945	50.816	51.082	12576	1807	0.07	0.00000	   	38	C22:6n3	3.175	1214641.186	0.000	1.004	25.175	1.129

[Compound Results (Ch1)]
# of IDs	38
ID#	Name	R.Time	Area	Height	Conc.	Curve	3rd	2nd	1st	Constant
1	C4:0 Butyric	12.202	336971	119968	0.00000	Default	0.0000000	0.0000000	0.0000000	0.0000000	
2	C6:0 Caproic	14.117	212217	65073	0.00000	Default	0.0000000	0.0000000	0.0000000	0.0000000	
3	C8:0 Caprylic	16.724	130489	39011	0.00000	Default	0.0000000	0.0000000	0.0000000	0.0000000	
4	C10:0 Capric	19.543	310975	97335	0.00000	Default	0.0000000	0.0000000	0.0000000	0.0000000	
5	C10:1	20.487	26497	8014	0.00000	Default	0.0000000	0.0000000	0.0000000	0.0000000	
6	C11:0 Undecylic	0.000	0	0	0.00000	Default	0.0000000	0.0000000	0.0000000	0.0000000	
7	C12:0 Lauric	22.393	374394	117081	0.00000	Default	0.0000000	0.0000000	0.0000000	0.0000000	
8	C13:0 Tridecylic	23.857	10224	3107	0.00000	Default	0.0000000	0.0000000	0.0000000	0.0000000	
9	C14:0 Myristic	25.440	1425685	354327	0.00000	Default	0.0000000	0.0000000	0.0000000	0.0000000	
10	C14:1n6	26.447	85060	24527	0.00000	Default	0.0000000	0.0000000	0.0000000	0.0000000	
11	C15:0 Pentadecylic	27.032	165037	46227	0.00000	Default	0.0000000	0.0000000	0.0000000	0.0000000	
12	C15:1	27.883	44838	10414	0.00000	Default	0.0000000	0.0000000	0.0000000	0.0000000	
13	C16:0 Palmitic	28.890	3699319	592812	0.00000	Default	0.0000000	0.0000000	0.0000000	0.0000000	
14	C16:1n7 Palmitoleic	29.807	123580	32183	0.00000	Default	0.0000000	0.0000000	0.0000000	0.0000000	
15	C17:0 Margaric	30.631	85545	18968	0.00000	Default	0.0000000	0.0000000	0.0000000	0.0000000	
16	C17:1	31.645	44188	7336	0.00000	Default	0.0000000	0.0000000	0.0000000	0.0000000	
17	C18:0 Stearic	32.730	1723055	239386	0.00000	Default	0.0000000	0.0000000	0.0000000	0.0000000	
18	C18:1 trans 9 Elaidic	33.434	739690	84798	0.00000	Default	0.0000000	0.0000000	0.0000000	0.0000000	
19	C18:1 cis 9 Oleic	33.770	3117400	431770	0.00000	Default	0.0000000	0.0000000	0.0000000	0.0000000	
20	C18:2 trans 9, 12 Linolelaidic	34.278	48310	6729	0.00000	Default	0.0000000	0.0000000	0.0000000	0.0000000	
21	C18:2 cis 9, 12  Linoleic	35.255	285353	62574	0.00000	Default	0.0000000	0.0000000	0.0000000	0.0000000	
22	C18:3n6 Linolenic	0.000	0	0	0.00000	Default	0.0000000	0.0000000	0.0000000	0.0000000	
23	C18:3n3 Linolinic	37.162	131183	30075	0.00000	Default	0.0000000	0.0000000	0.0000000	0.0000000	
24	C20:0 Arachidic	36.807	23382	5262	0.00000	Default	0.0000000	0.0000000	0.0000000	0.0000000	
25	C20:1	0.000	0	0	0.00000	Default	0.0000000	0.0000000	0.0000000	0.0000000	
26	C21:0	0.000	0	0	0.00000	Default	0.0000000	0.0000000	0.0000000	0.0000000	
27	C20:2	0.000	0	0	0.00000	Default	0.0000000	0.0000000	0.0000000	0.0000000	
28	C20:3n6	0.000	0	0	0.00000	Default	0.0000000	0.0000000	0.0000000	0.0000000	
29	C20:4n6	0.000	0	0	0.00000	Default	0.0000000	0.0000000	0.0000000	0.0000000	
30	C20:3n3	0.000	0	0	0.00000	Default	0.0000000	0.0000000	0.0000000	0.0000000	
31	C22:0 Behenic	41.283	12912	2312	0.00000	Default	0.0000000	0.0000000	0.0000000	0.0000000	
32	C22:1	0.000	0	0	0.00000	Default	0.0000000	0.0000000	0.0000000	0.0000000	
33	C20:5	0.000	0	0	0.00000	Default	0.0000000	0.0000000	0.0000000	0.0000000	
34	C23.0	0.000	0	0	0.00000	Default	0.0000000	0.0000000	0.0000000	0.0000000	
35	C22:2	0.000	0	0	0.00000	Default	0.0000000	0.0000000	0.0000000	0.0000000	
36	C24:0 Lignoceric	46.514	10163	1575	0.00000	Default	0.0000000	0.0000000	0.0000000	0.0000000	
37	C24:1n9	0.000	0	0	0.00000	Default	0.0000000	0.0000000	0.0000000	0.0000000	
38	C22:6n3	50.945	12576	1807	0.00000	Default	0.0000000	0.0000000	0.0000000	0.0000000	

[Group Results (Ch1)]
# of Groups	0

